Response function created for file:alfna-Si at 06-Sep-18 09:38:01
Calibration (a0,a1)=    10.0   20.000  FWHM=    6.0

 Egam(keV) FWHM(keV) EffTot  Photo  Compton Single  Double   Annih
    10.0       4.0   0.854  1.0000  0.0000  0.0000  0.0000  0.0000
    30.0       6.0   0.861  0.9564  0.0436  0.0000  0.0000  0.0000
    50.0       9.8   0.868  0.9175  0.0825  0.0000  0.0000  0.0000
    70.0      13.3   0.875  0.8441  0.1559  0.0000  0.0000  0.0000
    90.0      16.5   0.882  0.8267  0.1733  0.0000  0.0000  0.0000
   110.0      19.6   0.890  0.8053  0.1947  0.0000  0.0000  0.0000
   130.0      22.4   0.897  0.7609  0.2391  0.0000  0.0000  0.0000
   150.0      24.9   0.904  0.7523  0.2477  0.0000  0.0000  0.0000
   170.0      27.3   0.911  0.7340  0.2660  0.0000  0.0000  0.0000
   190.0      29.4   0.918  0.7067  0.2933  0.0000  0.0000  0.0000
   210.0      31.2   0.926  0.6947  0.3053  0.0000  0.0000  0.0000
   230.0      32.9   0.933  0.6881  0.3119  0.0000  0.0000  0.0000
   250.0      34.3   0.940  0.6819  0.3181  0.0000  0.0000  0.0000
   270.0      35.4   0.947  0.6625  0.3375  0.0000  0.0000  0.0000
   290.0      36.4   0.954  0.6544  0.3456  0.0000  0.0000  0.0000
   310.0      37.1   0.962  0.6506  0.3494  0.0000  0.0000  0.0000
   330.0      37.6   0.969  0.6537  0.3463  0.0000  0.0000  0.0000
   350.0      37.8   0.976  0.6436  0.3564  0.0000  0.0000  0.0000
   370.0      37.8   0.983  0.6343  0.3657  0.0000  0.0000  0.0000
   390.0      37.6   0.990  0.6217  0.3783  0.0000  0.0000  0.0000
   410.0      38.1   0.995  0.6187  0.3813  0.0000  0.0000  0.0000
   430.0      39.4   0.996  0.6105  0.3895  0.0000  0.0000  0.0000
   450.0      40.6   0.998  0.6052  0.3948  0.0000  0.0000  0.0000
   470.0      41.8   1.000  0.6003  0.3997  0.0000  0.0000  0.0000
   490.0      42.9   1.001  0.5977  0.4023  0.0000  0.0000  0.0000
   510.0      44.0   1.003  0.5913  0.4087  0.0000  0.0000  0.0000
   530.0      45.0   1.004  0.5903  0.4097  0.0000  0.0000  0.0000
   550.0      45.9   1.006  0.5870  0.4130  0.0000  0.0000  0.0000
   570.0      46.9   1.008  0.5838  0.4162  0.0000  0.0000  0.0000
   590.0      47.7   1.009  0.5792  0.4208  0.0000  0.0000  0.0000
   610.0      48.7   1.010  0.5817  0.4183  0.0000  0.0000  0.0000
   630.0      49.7   1.012  0.5756  0.4244  0.0000  0.0000  0.0000
   650.0      50.7   1.013  0.5706  0.4294  0.0000  0.0000  0.0000
   670.0      51.7   1.013  0.5644  0.4356  0.0000  0.0000  0.0000
   690.0      52.6   1.015  0.5607  0.4393  0.0000  0.0000  0.0000
   710.0      53.5   1.015  0.5578  0.4422  0.0000  0.0000  0.0000
   730.0      54.4   1.016  0.5546  0.4454  0.0000  0.0000  0.0000
   750.0      55.2   1.017  0.5515  0.4485  0.0000  0.0000  0.0000
   770.0      56.0   1.018  0.5490  0.4510  0.0000  0.0000  0.0000
   790.0      56.8   1.020  0.5444  0.4556  0.0000  0.0000  0.0000
   810.0      57.6   1.020  0.5473  0.4527  0.0000  0.0000  0.0000
   830.0      58.6   1.018  0.5443  0.4557  0.0000  0.0000  0.0000
   850.0      59.5   1.017  0.5397  0.4603  0.0000  0.0000  0.0000
   870.0      60.4   1.016  0.5377  0.4623  0.0000  0.0000  0.0000
   890.0      61.3   1.015  0.5349  0.4651  0.0000  0.0000  0.0000
   910.0      62.2   1.015  0.5327  0.4673  0.0000  0.0000  0.0000
   930.0      63.0   1.013  0.5287  0.4713  0.0000  0.0000  0.0000
   950.0      63.8   1.013  0.5260  0.4740  0.0000  0.0000  0.0000
   970.0      64.6   1.012  0.5246  0.4754  0.0000  0.0000  0.0000
   990.0      65.4   1.010  0.5209  0.4791  0.0000  0.0000  0.0000
  1010.0      66.2   1.010  0.5236  0.4764  0.0000  0.0000  0.0000
  1030.0      67.1   1.008  0.5185  0.4815  0.0000  0.0000  0.0000
  1050.0      68.0   1.007  0.5164  0.4836  0.0000  0.0000  0.0000
  1070.0      68.8   1.007  0.5132  0.4868  0.0000  0.0000  0.0000
  1090.0      69.7   1.005  0.5112  0.4888  0.0000  0.0000  0.0000
  1110.0      70.5   1.005  0.5085  0.4915  0.0000  0.0000  0.0000
  1130.0      71.3   1.003  0.5060  0.4940  0.0000  0.0000  0.0000
  1150.0      72.1   1.003  0.5033  0.4967  0.0000  0.0000  0.0000
  1170.0      72.9   1.002  0.5017  0.4983  0.0000  0.0000  0.0000
  1190.0      73.7   1.000  0.4975  0.5025  0.0000  0.0000  0.0000
  1210.0      74.5   1.000  0.4982  0.5018  0.0000  0.0000  0.0000
  1230.0      75.4   1.000  0.4954  0.5046  0.0000  0.0000  0.0000
  1250.0      76.3   1.000  0.4941  0.5059  0.0000  0.0000  0.0000
  1270.0      77.1   0.999  0.4917  0.5083  0.0000  0.0000  0.0000
  1290.0      78.0   0.999  0.4898  0.5102  0.0000  0.0000  0.0000
  1310.0      78.9   0.999  0.4877  0.5123  0.0000  0.0000  0.0000
  1330.0      79.7   0.999  0.4851  0.5149  0.0000  0.0000  0.0000
  1350.0      80.5   0.998  0.4836  0.5164  0.0000  0.0000  0.0000
  1370.0      81.3   0.998  0.4820  0.5180  0.0000  0.0000  0.0000
  1390.0      82.1   0.998  0.4783  0.5217  0.0000  0.0000  0.0000
  1410.0      82.9   0.998  0.4787  0.5206  0.0003  0.0000  0.0003
  1430.0      83.6   0.997  0.4749  0.5232  0.0010  0.0000  0.0009
  1450.0      84.4   0.997  0.4737  0.5230  0.0017  0.0000  0.0015
  1470.0      85.1   0.996  0.4716  0.5239  0.0024  0.0000  0.0021
  1490.0      85.8   0.995  0.4689  0.5253  0.0031  0.0000  0.0027
  1510.0      86.4   0.995  0.4668  0.5261  0.0038  0.0000  0.0033
  1530.0      87.1   0.994  0.4642  0.5274  0.0045  0.0000  0.0039
  1550.0      87.8   0.993  0.4616  0.5288  0.0052  0.0000  0.0045
  1570.0      88.4   0.993  0.4598  0.5292  0.0059  0.0000  0.0051
  1590.0      89.0   0.992  0.4559  0.5318  0.0065  0.0000  0.0057
  1610.0      89.8   0.992  0.4567  0.5301  0.0070  0.0000  0.0062
  1630.0      90.7   0.992  0.4527  0.5334  0.0072  0.0000  0.0066
  1650.0      91.6   0.992  0.4510  0.5346  0.0075  0.0000  0.0070
  1670.0      92.4   0.991  0.4489  0.5360  0.0077  0.0000  0.0073
  1690.0      93.3   0.991  0.4467  0.5377  0.0080  0.0000  0.0077
  1710.0      94.2   0.991  0.4444  0.5393  0.0082  0.0000  0.0081
  1730.0      95.0   0.991  0.4421  0.5410  0.0084  0.0000  0.0085
  1750.0      95.9   0.990  0.4402  0.5423  0.0086  0.0000  0.0089
  1770.0      96.7   0.990  0.4380  0.5438  0.0089  0.0000  0.0093
  1790.0      97.5   0.990  0.4351  0.5462  0.0091  0.0000  0.0096
  1810.0      98.4   0.990  0.4349  0.5457  0.0094  0.0000  0.0101
  1830.0      99.3   0.990  0.4324  0.5476  0.0096  0.0000  0.0105
  1850.0     100.1   0.989  0.4310  0.5483  0.0098  0.0000  0.0109
  1870.0     101.0   0.989  0.4295  0.5492  0.0100  0.0000  0.0113
  1890.0     101.8   0.989  0.4278  0.5503  0.0102  0.0000  0.0117
  1910.0     102.6   0.989  0.4258  0.5516  0.0104  0.0000  0.0121
  1930.0     103.5   0.989  0.4243  0.5525  0.0106  0.0000  0.0126
  1950.0     104.3   0.988  0.4229  0.5533  0.0109  0.0000  0.0130
  1970.0     105.1   0.988  0.4210  0.5546  0.0111  0.0000  0.0134
  1990.0     106.0   0.988  0.4180  0.5570  0.0112  0.0000  0.0138
  2010.0     106.7   0.988  0.4184  0.5556  0.0118  0.0000  0.0141
  2030.0     107.5   0.988  0.4160  0.5570  0.0127  0.0000  0.0143
  2050.0     108.2   0.988  0.4144  0.5576  0.0136  0.0000  0.0144
  2070.0     109.0   0.988  0.4129  0.5580  0.0145  0.0000  0.0146
  2090.0     109.7   0.988  0.4108  0.5590  0.0154  0.0000  0.0148
  2110.0     110.5   0.988  0.4089  0.5599  0.0163  0.0000  0.0149
  2130.0     111.2   0.988  0.4071  0.5607  0.0171  0.0000  0.0151
  2150.0     111.9   0.988  0.4056  0.5611  0.0180  0.0000  0.0152
  2170.0     112.6   0.988  0.4034  0.5623  0.0189  0.0000  0.0154
  2190.0     113.3   0.988  0.4011  0.5636  0.0198  0.0000  0.0155
  2210.0     114.1   0.988  0.4004  0.5633  0.0204  0.0000  0.0160
  2230.0     114.9   0.988  0.3983  0.5645  0.0206  0.0000  0.0166
  2250.0     115.7   0.988  0.3967  0.5652  0.0209  0.0000  0.0172
  2270.0     116.5   0.988  0.3952  0.5658  0.0212  0.0000  0.0178
  2290.0     117.3   0.988  0.3934  0.5667  0.0214  0.0000  0.0185
  2310.0     118.1   0.989  0.3917  0.5675  0.0217  0.0000  0.0191
  2330.0     118.8   0.989  0.3900  0.5684  0.0220  0.0000  0.0197
  2350.0     119.6   0.989  0.3888  0.5686  0.0223  0.0000  0.0204
  2370.0     120.4   0.989  0.3866  0.5700  0.0225  0.0000  0.0210
  2390.0     121.2   0.989  0.3845  0.5712  0.0227  0.0000  0.0216
  2410.0     121.9   0.989  0.3837  0.5712  0.0230  0.0000  0.0220
  2430.0     122.7   0.989  0.3818  0.5726  0.0233  0.0000  0.0222
  2450.0     123.4   0.990  0.3801  0.5739  0.0236  0.0000  0.0224
  2470.0     124.1   0.990  0.3792  0.5742  0.0239  0.0000  0.0227
  2490.0     124.9   0.990  0.3776  0.5753  0.0242  0.0000  0.0229
  2510.0     125.6   0.990  0.3760  0.5764  0.0245  0.0000  0.0231
  2530.0     126.3   0.990  0.3745  0.5774  0.0248  0.0000  0.0234
  2550.0     127.0   0.990  0.3734  0.5780  0.0251  0.0000  0.0236
  2570.0     127.7   0.991  0.3715  0.5794  0.0253  0.0000  0.0238
  2590.0     128.4   0.991  0.3697  0.5807  0.0256  0.0000  0.0240
  2610.0     129.1   0.991  0.3694  0.5803  0.0259  0.0000  0.0244
  2630.0     129.7   0.991  0.3671  0.5821  0.0260  0.0000  0.0248
  2650.0     130.3   0.992  0.3651  0.5835  0.0261  0.0000  0.0253
  2670.0     130.9   0.992  0.3642  0.5838  0.0263  0.0000  0.0257
  2690.0     131.5   0.992  0.3626  0.5848  0.0264  0.0000  0.0262
  2710.0     132.0   0.993  0.3609  0.5859  0.0266  0.0000  0.0266
  2730.0     132.6   0.993  0.3594  0.5868  0.0267  0.0000  0.0271
  2750.0     133.2   0.993  0.3581  0.5875  0.0269  0.0000  0.0275
  2770.0     133.8   0.994  0.3561  0.5890  0.0270  0.0000  0.0279
  2790.0     134.3   0.994  0.3543  0.5902  0.0271  0.0000  0.0284
  2810.0     134.9   0.994  0.3540  0.5899  0.0273  0.0000  0.0288
  2830.0     135.4   0.994  0.3529  0.5907  0.0274  0.0000  0.0290
  2850.0     136.0   0.995  0.3514  0.5920  0.0274  0.0000  0.0292
  2870.0     136.5   0.995  0.3510  0.5919  0.0275  0.0000  0.0295
  2890.0     137.0   0.995  0.3501  0.5925  0.0276  0.0000  0.0298
  2910.0     137.6   0.996  0.3484  0.5941  0.0276  0.0000  0.0299
  2930.0     138.1   0.996  0.3475  0.5946  0.0277  0.0000  0.0302
  2950.0     138.6   0.996  0.3466  0.5952  0.0277  0.0000  0.0305
  2970.0     139.1   0.997  0.3450  0.5966  0.0277  0.0000  0.0306
  2990.0     139.6   0.997  0.3441  0.5972  0.0278  0.0000  0.0309
  3010.0     140.0   0.997  0.3438  0.5969  0.0280  0.0001  0.0313
  3030.0     140.2   0.998  0.3426  0.5972  0.0283  0.0002  0.0317
  3050.0     140.5   0.998  0.3407  0.5984  0.0285  0.0003  0.0321
  3070.0     140.7   0.999  0.3402  0.5981  0.0288  0.0004  0.0325
  3090.0     140.9   0.999  0.3392  0.5983  0.0291  0.0005  0.0330
  3110.0     141.1   1.000  0.3377  0.5990  0.0293  0.0006  0.0334
  3130.0     141.3   1.000  0.3366  0.5993  0.0295  0.0007  0.0338
  3150.0     141.5   1.001  0.3352  0.6000  0.0298  0.0009  0.0342
  3170.0     141.6   1.001  0.3340  0.6004  0.0300  0.0010  0.0346
  3190.0     141.8   1.002  0.3328  0.6009  0.0303  0.0011  0.0350
  3210.0     142.0   1.002  0.3317  0.6011  0.0305  0.0012  0.0354
  3230.0     142.1   1.003  0.3304  0.6016  0.0308  0.0013  0.0359
  3250.0     142.2   1.003  0.3290  0.6023  0.0310  0.0014  0.0362
  3270.0     142.4   1.004  0.3279  0.6026  0.0313  0.0016  0.0367
  3290.0     142.5   1.005  0.3267  0.6031  0.0315  0.0017  0.0371
  3310.0     142.6   1.005  0.3254  0.6036  0.0318  0.0018  0.0375
  3330.0     142.7   1.006  0.3241  0.6041  0.0320  0.0019  0.0379
  3350.0     142.8   1.006  0.3228  0.6046  0.0323  0.0020  0.0383
  3370.0     142.9   1.007  0.3217  0.6050  0.0325  0.0021  0.0387
  3390.0     142.9   1.007  0.3201  0.6058  0.0327  0.0022  0.0391
  3410.0     143.0   1.008  0.3190  0.6061  0.0330  0.0024  0.0395
  3430.0     143.1   1.008  0.3181  0.6062  0.0333  0.0025  0.0400
  3450.0     143.1   1.009  0.3168  0.6068  0.0335  0.0026  0.0404
  3470.0     143.1   1.009  0.3149  0.6079  0.0337  0.0027  0.0407
  3490.0     143.2   1.010  0.3138  0.6082  0.0340  0.0028  0.0412
  3510.0     143.5   1.010  0.3132  0.6081  0.0343  0.0029  0.0416
  3530.0     144.2   1.011  0.3123  0.6084  0.0346  0.0029  0.0419
  3550.0     144.8   1.011  0.3108  0.6096  0.0348  0.0029  0.0421
  3570.0     145.5   1.011  0.3091  0.6108  0.0350  0.0028  0.0422
  3590.0     146.1   1.012  0.3086  0.6107  0.0353  0.0028  0.0426
  3610.0     146.8   1.012  0.3076  0.6112  0.0356  0.0028  0.0428
  3630.0     147.4   1.013  0.3064  0.6118  0.0358  0.0028  0.0431
  3650.0     148.1   1.013  0.3055  0.6122  0.0361  0.0028  0.0434
  3670.0     148.7   1.013  0.3043  0.6130  0.0363  0.0028  0.0436
  3690.0     149.4   1.014  0.3032  0.6136  0.0366  0.0028  0.0439
  3710.0     150.0   1.014  0.3021  0.6141  0.0369  0.0028  0.0441
  3730.0     150.6   1.015  0.3012  0.6145  0.0372  0.0028  0.0444
  3750.0     151.3   1.015  0.3000  0.6151  0.0374  0.0028  0.0447
  3770.0     151.9   1.015  0.2990  0.6156  0.0377  0.0028  0.0449
  3790.0     152.5   1.016  0.2978  0.6163  0.0379  0.0028  0.0452
  3810.0     153.2   1.016  0.2961  0.6177  0.0381  0.0027  0.0453
  3830.0     153.8   1.017  0.2949  0.6184  0.0384  0.0027  0.0456
  3850.0     154.4   1.017  0.2939  0.6189  0.0386  0.0027  0.0459
  3870.0     155.1   1.017  0.2928  0.6195  0.0389  0.0027  0.0461
  3890.0     155.7   1.018  0.2916  0.6202  0.0392  0.0027  0.0464
  3910.0     156.3   1.018  0.2907  0.6205  0.0394  0.0027  0.0467
  3930.0     156.9   1.019  0.2899  0.6207  0.0398  0.0027  0.0470
  3950.0     157.6   1.019  0.2885  0.6216  0.0400  0.0027  0.0472
  3970.0     158.2   1.019  0.2870  0.6227  0.0402  0.0027  0.0474
  3990.0     158.8   1.020  0.2861  0.6231  0.0405  0.0027  0.0477
  4010.0     159.4   1.020  0.2854  0.6232  0.0407  0.0027  0.0480
  4030.0     159.9   1.021  0.2847  0.6235  0.0410  0.0027  0.0482
  4050.0     160.4   1.021  0.2834  0.6245  0.0411  0.0027  0.0484
  4070.0     160.9   1.021  0.2818  0.6258  0.0412  0.0027  0.0485
  4090.0     161.4   1.022  0.2813  0.6259  0.0415  0.0027  0.0487
  4110.0     162.0   1.022  0.2806  0.6260  0.0417  0.0027  0.0490
  4130.0     162.5   1.023  0.2797  0.6265  0.0419  0.0027  0.0492
  4150.0     163.0   1.023  0.2787  0.6271  0.0421  0.0027  0.0494
  4170.0     163.5   1.023  0.2779  0.6274  0.0423  0.0027  0.0497
  4190.0     164.0   1.024  0.2769  0.6280  0.0425  0.0027  0.0499
  4210.0     164.5   1.024  0.2760  0.6284  0.0427  0.0027  0.0501
  4230.0     165.0   1.025  0.2752  0.6288  0.0429  0.0027  0.0504
  4250.0     165.5   1.025  0.2744  0.6291  0.0432  0.0027  0.0506
  4270.0     166.0   1.025  0.2736  0.6295  0.0434  0.0027  0.0508
  4290.0     166.5   1.026  0.2725  0.6302  0.0436  0.0027  0.0510
  4310.0     167.0   1.026  0.2717  0.6305  0.0438  0.0027  0.0513
  4330.0     167.5   1.027  0.2708  0.6310  0.0440  0.0027  0.0515
  4350.0     168.0   1.027  0.2699  0.6315  0.0442  0.0027  0.0517
  4370.0     168.4   1.027  0.2683  0.6330  0.0443  0.0027  0.0518
  4390.0     168.9   1.028  0.2676  0.6331  0.0445  0.0027  0.0521
  4410.0     169.4   1.028  0.2669  0.6334  0.0447  0.0027  0.0523
  4430.0     169.9   1.029  0.2661  0.6337  0.0450  0.0027  0.0526
  4450.0     170.3   1.029  0.2649  0.6345  0.0451  0.0027  0.0527
  4470.0     170.8   1.029  0.2638  0.6353  0.0453  0.0027  0.0529
  4490.0     171.3   1.030  0.2631  0.6356  0.0455  0.0027  0.0532
  4510.0     171.7   1.030  0.2624  0.6358  0.0457  0.0027  0.0534
  4530.0     172.0   1.031  0.2618  0.6360  0.0458  0.0028  0.0536
  4550.0     172.4   1.032  0.2607  0.6368  0.0459  0.0029  0.0537
  4570.0     172.7   1.033  0.2597  0.6377  0.0459  0.0029  0.0538
  4590.0     173.1   1.034  0.2591  0.6379  0.0461  0.0030  0.0540
  4610.0     173.4   1.034  0.2585  0.6381  0.0462  0.0031  0.0542
  4630.0     173.7   1.035  0.2578  0.6384  0.0463  0.0031  0.0543
  4650.0     174.1   1.036  0.2569  0.6391  0.0464  0.0032  0.0545
  4670.0     174.4   1.037  0.2560  0.6397  0.0464  0.0033  0.0546
  4690.0     174.7   1.038  0.2554  0.6399  0.0466  0.0033  0.0548
  4710.0     175.1   1.038  0.2546  0.6404  0.0467  0.0034  0.0549
  4730.0     175.4   1.039  0.2538  0.6409  0.0468  0.0035  0.0551
  4750.0     175.7   1.040  0.2530  0.6413  0.0469  0.0035  0.0552
  4770.0     176.0   1.041  0.2521  0.6420  0.0469  0.0036  0.0553
  4790.0     176.3   1.042  0.2509  0.6431  0.0469  0.0037  0.0554
  4810.0     176.6   1.042  0.2502  0.6435  0.0471  0.0037  0.0556
  4830.0     176.9   1.043  0.2493  0.6441  0.0471  0.0038  0.0557
  4850.0     177.2   1.044  0.2484  0.6447  0.0472  0.0038  0.0558
  4870.0     177.5   1.045  0.2476  0.6453  0.0473  0.0039  0.0560
  4890.0     177.8   1.046  0.2470  0.6454  0.0474  0.0040  0.0562
  4910.0     178.1   1.046  0.2463  0.6458  0.0476  0.0041  0.0563
  4930.0     178.4   1.047  0.2455  0.6463  0.0476  0.0041  0.0565
  4950.0     178.6   1.048  0.2444  0.6472  0.0477  0.0042  0.0566
  4970.0     178.9   1.049  0.2435  0.6478  0.0478  0.0042  0.0567
  4990.0     179.2   1.050  0.2429  0.6481  0.0479  0.0043  0.0569
  5010.0     179.5   1.050  0.2423  0.6484  0.0479  0.0043  0.0571
  5030.0     180.0   1.051  0.2418  0.6487  0.0478  0.0043  0.0574
  5050.0     180.4   1.051  0.2411  0.6494  0.0477  0.0043  0.0576
  5070.0     180.8   1.051  0.2401  0.6504  0.0475  0.0043  0.0577
  5090.0     181.3   1.052  0.2395  0.6509  0.0473  0.0042  0.0580
  5110.0     181.7   1.052  0.2391  0.6512  0.0473  0.0042  0.0582
  5130.0     182.1   1.053  0.2386  0.6516  0.0472  0.0042  0.0585
  5150.0     182.6   1.053  0.2379  0.6521  0.0470  0.0042  0.0587
  5170.0     183.0   1.053  0.2372  0.6528  0.0469  0.0042  0.0590
  5190.0     183.4   1.054  0.2366  0.6534  0.0468  0.0041  0.0592
  5210.0     183.8   1.054  0.2361  0.6537  0.0467  0.0041  0.0595
  5230.0     184.3   1.055  0.2348  0.6552  0.0464  0.0041  0.0595
  5250.0     184.7   1.055  0.2340  0.6560  0.0462  0.0041  0.0597
  5270.0     185.1   1.055  0.2334  0.6565  0.0461  0.0040  0.0600
  5290.0     185.5   1.056  0.2329  0.6568  0.0460  0.0040  0.0602
  5310.0     185.9   1.056  0.2322  0.6575  0.0459  0.0040  0.0604
  5330.0     186.3   1.057  0.2316  0.6580  0.0458  0.0040  0.0607
  5350.0     186.7   1.057  0.2308  0.6588  0.0456  0.0039  0.0609
  5370.0     187.1   1.057  0.2303  0.6591  0.0455  0.0039  0.0611
  5390.0     187.5   1.058  0.2298  0.6595  0.0454  0.0039  0.0614
  5410.0     187.9   1.058  0.2293  0.6598  0.0453  0.0039  0.0617
  5430.0     188.3   1.059  0.2286  0.6605  0.0452  0.0039  0.0619
  5450.0     188.7   1.059  0.2275  0.6618  0.0449  0.0038  0.0620
  5470.0     189.1   1.059  0.2269  0.6622  0.0448  0.0038  0.0623
  5490.0     189.5   1.060  0.2264  0.6625  0.0447  0.0038  0.0625
  5510.0     190.0   1.060  0.2257  0.6627  0.0451  0.0037  0.0627
  5530.0     190.6   1.061  0.2252  0.6623  0.0461  0.0036  0.0628
  5550.0     191.3   1.061  0.2245  0.6621  0.0470  0.0035  0.0629
  5570.0     191.9   1.061  0.2234  0.6624  0.0479  0.0034  0.0628
  5590.0     192.5   1.062  0.2221  0.6631  0.0487  0.0033  0.0627
  5610.0     193.1   1.062  0.2217  0.6626  0.0497  0.0032  0.0629
  5630.0     193.8   1.063  0.2211  0.6622  0.0506  0.0031  0.0630
  5650.0     194.4   1.063  0.2205  0.6618  0.0516  0.0030  0.0631
  5670.0     195.0   1.063  0.2197  0.6617  0.0525  0.0029  0.0631
  5690.0     195.6   1.064  0.2190  0.6616  0.0534  0.0028  0.0632
  5710.0     196.3   1.064  0.2182  0.6614  0.0543  0.0028  0.0632
  5730.0     196.9   1.065  0.2176  0.6612  0.0553  0.0027  0.0633
  5750.0     197.5   1.065  0.2168  0.6610  0.0562  0.0026  0.0634
  5770.0     198.1   1.065  0.2162  0.6607  0.0572  0.0025  0.0635
  5790.0     198.7   1.066  0.2154  0.6606  0.0581  0.0024  0.0635
  5810.0     199.4   1.066  0.2146  0.6606  0.0590  0.0023  0.0635
  5830.0     200.0   1.067  0.2134  0.6612  0.0598  0.0022  0.0635
  5850.0     200.6   1.067  0.2128  0.6609  0.0607  0.0021  0.0636
  5870.0     201.2   1.067  0.2122  0.6605  0.0617  0.0020  0.0637
  5890.0     201.8   1.068  0.2116  0.6601  0.0627  0.0019  0.0638
